# f[Hz]			 h^2 OmegaPLS(f) SNR=1 Tobs=1yr
1.000000000000000000e+00 6.667717550069446020e+01
1.002537693486482473e+00 5.484694106244162271e+01
1.005081826861196292e+00 4.511569293897488109e+01
1.007632416466603731e+00 3.711101676657931137e+01
1.010189478686639664e+00 3.052657458486128306e+01
1.012753029946815708e+00 2.526408307185466739e+01
1.015323086714327028e+00 2.132631865177099328e+01
1.017899665498157358e+00 1.827224865733259307e+01
1.020482782849184700e+00 1.583073769337966574e+01
1.023072455360288346e+00 1.383494763266592820e+01
1.025668699666455908e+00 1.217544396664470163e+01
1.028271532444888336e+00 1.077685647157930937e+01
1.030880970415108955e+00 9.585245853829771789e+00
1.033497030339070033e+00 8.560799708700088217e+00
1.036119729021260483e+00 7.673379191461915383e+00
1.038749083308813770e+00 6.899682301179218769e+00
1.041385110091616051e+00 6.221369428354518227e+00
1.044027826302415418e+00 5.623785547154616538e+00
1.046677248916929370e+00 5.095065490470036984e+00
1.049333394953955167e+00 4.625492720991189799e+00
1.051996281475478412e+00 4.207030323331011346e+00
1.054665925586782294e+00 3.832971744257525515e+00
1.057342344436558834e+00 3.497676524904575590e+00
1.060025555217017690e+00 3.196367473310762097e+00
1.062715575163996728e+00 2.924972989127601508e+00
1.065412421557073941e+00 2.680003066819476309e+00
1.068116111719676686e+00 2.458450759548214126e+00
1.070826663019194713e+00 2.257713128216249920e+00
1.073544092867090294e+00 2.075527270216119380e+00
1.076268418719010800e+00 1.909918138633621476e+00
1.078999658074900614e+00 1.759155667327197747e+00
1.081737828479114150e+00 1.621719304901717340e+00
1.084482947520527318e+00 1.496268494798633997e+00
1.087235032832651438e+00 1.381617963129558868e+00
1.089994102093746253e+00 1.276716920744631834e+00
1.092760173026933845e+00 1.180631472620467637e+00
1.095533263400311652e+00 1.092529671112911327e+00
1.098313391027067487e+00 1.011668760838515313e+00
1.101100573765593227e+00 9.373842498466108397e-01
1.103894829519600274e+00 8.690805101379894815e-01
1.106696176238233909e+00 8.062226647885646358e-01
1.109504631916188533e+00 7.483295621706342882e-01
1.112320214593824463e+00 6.949676724621658419e-01
1.115142942357281841e+00 6.457457696421050608e-01
1.117972833338598759e+00 6.003102849008303821e-01
1.120809905715826504e+00 5.583412359399643199e-01
1.123654177713146574e+00 5.195486518391091435e-01
1.126505667600987914e+00 4.836694256898512734e-01
1.129364393696144608e+00 4.504645375574527488e-01
1.132230374361892444e+00 4.197165989378975337e-01
1.135103628008108156e+00 3.912276770574459328e-01
1.137984173091386886e+00 3.648173633736700450e-01
1.140872028115160974e+00 3.403210556888935368e-01
1.143767211629818759e+00 3.175884275475419627e-01
1.146669742232824030e+00 2.964820621937562795e-01
1.149579638568834605e+00 2.768762314254507029e-01
1.152496919329823566e+00 2.586558022861455974e-01
1.155421603255198049e+00 2.417152567603618463e-01
1.158353709131919818e+00 2.259578115430732059e-01
1.161293255794626722e+00 2.112946265890168762e-01
1.164240262125752601e+00 1.976440925552936656e-01
1.167194747055649851e+00 1.849311884652552751e-01
1.170156729562709330e+00 1.730869019722927060e-01
1.173126228673484261e+00 1.620477055128074773e-01
1.176103263462810578e+00 1.517550824289763678e-01
1.179087853053931045e+00 1.421550978307507818e-01
1.182080016618616503e+00 1.331980095676020548e-01
1.185079773377290646e+00 1.248379152058361058e-01
1.188087142599152157e+00 1.170324313674150768e-01
1.191102143602299490e+00 1.097424021898936036e-01
1.194124795753854329e+00 1.029316340218757730e-01
1.197155118470086155e+00 9.656665378075174333e-02
1.200193131216536813e+00 9.061648867494501158e-02
1.203238853508145967e+00 8.505246523620083043e-02
1.206292304909376112e+00 7.984802582265738968e-02
1.209353505034338472e+00 7.497856094413736516e-02
1.212422473546918900e+00 7.042125593023428054e-02
1.215499230160903776e+00 6.615495061207765648e-02
1.218583794640107465e+00 6.216001082234129393e-02
1.221676186798498653e+00 5.841821063717692747e-02
1.224776426500328030e+00 5.491262438995846845e-02
1.227884533660255073e+00 5.162752758159754735e-02
1.231000528243477277e+00 4.854830589698500704e-02
1.234124430265857164e+00 4.566137161304335140e-02
1.237256259794051516e+00 4.295408675188359254e-02
1.240396036945640601e+00 4.041469239359585935e-02
1.243543781889256072e+00 3.803224361800347508e-02
1.246699514844712198e+00 3.579654959396687264e-02
1.249863256083134422e+00 3.369811837916884822e-02
1.253035025927090373e+00 3.172810603322397810e-02
1.256214844750719983e+00 2.987826968297390556e-02
1.259402732979866268e+00 2.814092421130119648e-02
1.262598711092207449e+00 2.650890227014676345e-02
1.265802799617387286e+00 2.497551734493928116e-02
1.269015019137147648e+00 2.353452962164261780e-02
1.272235390285460177e+00 2.218011442936520736e-02
1.275463933748660184e+00 2.090683305116391999e-02
1.278700670265577433e+00 1.970960571354830534e-02
1.281945620627670923e+00 1.858368658139304685e-02
1.285198805679162559e+00 1.752464059970457524e-02
1.288460246317169489e+00 1.652832203707249245e-02
1.291729963491840216e+00 1.559085459781052972e-02
1.295007978206487609e+00 1.470861298088779051e-02
1.298294311517725008e+00 1.387820577383820642e-02
1.301588984535600790e+00 1.309645957905183726e-02
1.304892018423734035e+00 1.236040427824002842e-02
1.308203434399450860e+00 1.166725934853277830e-02
1.311523253733920091e+00 1.101442115066710546e-02
1.314851497752290932e+00 1.039945111611516489e-02
1.318188187833828628e+00 9.820064765855557667e-03
1.321533345412052585e+00 9.274121498833691121e-03
1.324886991974874029e+00 8.759615093061359076e-03
1.328249149064734125e+00 8.274664866787167367e-03
1.331619838278741419e+00 7.817507451281574191e-03
1.334999081268812171e+00 7.386489130549967093e-03
1.338386899741808023e+00 6.980058706744701746e-03
1.341783315459676329e+00 6.596760853220513462e-03
1.345188350239589159e+00 6.235229920094056619e-03
1.348602025954084294e+00 5.894184159843868405e-03
1.352024364531204892e+00 5.572420342950841141e-03
1.355455387954641155e+00 5.268808735842013882e-03
1.358895118263871327e+00 4.982288415484097295e-03
1.362343577554302243e+00 4.711862896890016070e-03
1.365800787977413000e+00 4.456596051567623604e-03
1.369266771740895727e+00 4.215608296567493682e-03
1.372741551108799474e+00 3.988073035284467154e-03
1.376225148401672094e+00 3.773213332552388926e-03
1.379717585996704354e+00 3.570298807845253327e-03
1.383218886327873376e+00 3.378642731576298516e-03
1.386729071886087183e+00 3.197599310572978547e-03
1.390248165219328147e+00 3.026561149809671707e-03
1.393776188932799531e+00 2.864956878407329179e-03
1.397313165689068715e+00 2.712248928766764888e-03
1.400859118208213960e+00 2.567931458494963643e-03
1.404414069267970300e+00 2.431528405516671099e-03
1.407978041703876082e+00 2.302591667442927415e-03
1.411551058409418191e+00 2.180699396895335092e-03
1.415133142336181038e+00 2.065454405067025916e-03
1.418724316493993109e+00 1.956482666339966116e-03
1.422324603951073962e+00 1.853431917277444108e-03
1.425934027834184548e+00 1.755970343773085229e-03
1.429552611328772871e+00 1.663785350567512393e-03
1.433180377679125872e+00 1.576582407740882057e-03
1.436817350188516640e+00 1.494083969159533008e-03
1.440463552219354959e+00 1.416028458197389267e-03
1.444119007193337412e+00 1.342169316370864446e-03
1.447783738591597258e+00 1.272274110822052811e-03
1.451457769954856536e+00 1.206123696858743153e-03
1.455141124883575277e+00 1.143511432015618641e-03
1.458833827038104936e+00 1.084242438337738521e-03
1.462535900138839828e+00 1.028132909807903889e-03
1.466247367966368786e+00 9.750094620447723312e-04
1.469968254361629034e+00 9.247085215890657722e-04
1.473698583226058512e+00 8.770757522729186011e-04
1.477438378521749529e+00 8.319655163326757736e-04
1.481187664271603532e+00 7.892403680790787985e-04
1.484946464559483648e+00 7.487705780822878241e-04
1.488714803530371444e+00 7.104336859624912426e-04
1.492492705390520369e+00 6.741140800012727138e-04
1.496280194407612507e+00 6.397026019048478174e-04
1.500077294910913350e+00 6.070961751582259255e-04
1.503884031291428780e+00 5.761974555101692696e-04
1.507700428002062054e+00 5.469145022228193371e-04
1.511526509557769682e+00 5.191604688074693630e-04
1.515362300535719964e+00 4.928533120497496662e-04
1.519207825575450421e+00 4.679155182038841629e-04
1.523063109379026336e+00 4.442738453070163530e-04
1.526928176711199292e+00 4.218590806309228513e-04
1.530803052399565711e+00 4.006058123509202598e-04
1.534687761334727396e+00 3.804522145695114462e-04
1.538582328470450955e+00 3.613398448868301665e-04
1.542486778823827454e+00 3.432134537605027865e-04
1.546401137475433840e+00 3.260208049449657159e-04
1.550325429569494373e+00 3.097125063446310106e-04
1.554259680314040937e+00 2.942418506567149260e-04
1.558203914981076021e+00 2.795646652182486448e-04
1.562158158906735039e+00 2.656391705081634922e-04
1.566122437491447972e+00 2.524258467891587815e-04
1.570096776200104127e+00 2.398873084058553672e-04
1.574081200562214011e+00 2.279881852855116106e-04
1.578075736172075194e+00 2.166950112152964169e-04
1.582080408688935069e+00 2.059761184962774277e-04
1.586095243837156499e+00 1.958015385986081817e-04
1.590120267406382792e+00 1.861429084653151082e-04
1.594155505251703575e+00 1.769733821334616209e-04
1.598200983293821098e+00 1.682675473615406075e-04
1.602256727519215662e+00 1.600013469708161211e-04
1.606322763980313706e+00 1.521520046258578729e-04
1.610399118795655005e+00 1.446979547961585596e-04
1.614485818150059648e+00 1.376187766561344202e-04
1.618582888294797462e+00 1.308951316954087146e-04
1.622690355547754981e+00 1.245087048249011964e-04
1.626808246293606430e+00 1.184421487770001075e-04
1.630936586983981584e+00 1.126790316101595546e-04
1.635075404137636745e+00 1.072037871395003052e-04
1.639224724340624384e+00 1.020016681255416418e-04
1.643384574246464558e+00 9.705870206319312180e-05
1.647554980576315442e+00 9.236164942236183982e-05
1.651735970119145636e+00 8.789796420035890729e-05
1.655927569731905802e+00 8.365575665447246066e-05
1.660129806339701197e+00 7.962375809079544028e-05
1.664342706935964866e+00 7.579128759266428943e-05
1.668566298582630614e+00 7.214822057887538371e-05
1.672800608410307976e+00 6.868495908823317073e-05
1.677045663618454530e+00 6.539240369304130283e-05
1.681301491475552634e+00 6.226192694975643299e-05
1.685568119319283520e+00 5.928534830038682894e-05
1.689845574556702479e+00 5.645491034319833067e-05
1.694133884664416279e+00 5.376325639598816071e-05
1.698433077188758134e+00 5.120340927962920778e-05
1.702743179745966451e+00 4.876875125372809490e-05
1.707064220022360024e+00 4.645300504016598822e-05
1.711396225774518109e+00 4.425021587396749009e-05
1.715739224829456733e+00 4.215473452441414836e-05
1.720093245084808764e+00 4.016120123256769540e-05
1.724458314509002888e+00 3.826453051445341725e-05
1.728834461141443013e+00 3.645989678202630807e-05
1.733221713092687910e+00 3.474272073677673863e-05
1.737620098544633063e+00 3.310865649337940887e-05
1.742029645750690747e+00 3.155357939321552145e-05
1.746450383035971665e+00 3.007357446985174919e-05
1.750882338797466797e+00 2.866492553071615942e-05
1.755325541504230147e+00 2.732410482121132991e-05
1.759780019697561704e+00 2.604776323941012577e-05
1.764245801991190188e+00 2.483272107126924144e-05
1.768722917071457124e+00 2.367595921797403851e-05
1.773211393697501581e+00 2.257461088862466682e-05
1.777711260701444251e+00 2.152595373296241208e-05
1.782222546988572631e+00 2.052740239025046230e-05
1.786745281537527763e+00 1.957650143175518440e-05
1.791279493400488532e+00 1.867091867552178618e-05
1.795825211703360624e+00 1.780843885332567469e-05
1.800382465645961050e+00 1.698695761079429363e-05
1.804951284502208209e+00 1.620447582274605835e-05
1.809531697620307522e+00 1.545909420678354728e-05
1.814123734422941947e+00 1.474900821911625528e-05
1.818727424407460269e+00 1.407250321746788032e-05
1.823342797146066063e+00 1.342794987675829935e-05
1.827969882286008430e+00 1.281379984403538554e-05
1.832608709549771397e+00 1.222858161987115690e-05
1.837259308735266883e+00 1.167089665414224846e-05
1.841921709716023869e+00 1.113941564476793872e-05
1.846595942441380478e+00 1.063287502860814755e-05
1.851282036936679143e+00 1.015007365430927964e-05
1.855980023303455129e+00 9.689869627444141947e-06
1.860689931719633927e+00 9.251177318812746461e-06
1.865411792439721994e+00 8.832964527271815978e-06
1.870145635795003924e+00 8.434249788922814703e-06
1.874891492193734299e+00 8.054099824935758689e-06
1.879649392121335749e+00 7.691627120699657145e-06
1.884419366140592800e+00 7.345987629385823897e-06
1.889201444891849047e+00 7.016378593384069326e-06
1.893995659093204331e+00 6.702036477421814391e-06
1.898802039540711029e+00 6.402235007510049274e-06
1.903620617108573221e+00 6.116283310174281280e-06
1.908451422749343207e+00 5.843524146724215038e-06
1.913294487494122453e+00 5.583332237599105897e-06
1.918149842452758991e+00 5.335112672088240694e-06
1.923017518814048588e+00 5.098299398978738628e-06
1.927897547845934589e+00 4.872353793919835137e-06
1.932789960895708647e+00 4.656763299515467822e-06
1.937694789390212335e+00 4.451040134370898292e-06
1.942612064836038765e+00 4.254720067518217460e-06
1.947541818819735315e+00 4.067361254835205472e-06
1.952484083008006577e+00 3.888543134252487919e-06
1.957438889147916417e+00 3.717865376711324915e-06
1.962406269067094478e+00 3.554946889996999062e-06
1.967386254673938240e+00 3.399424872722809240e-06
1.972378877957819521e+00 3.250953915883951822e-06
1.977384170989288537e+00 3.109205149536327457e-06
1.982402165920281512e+00 2.973865432283499796e-06
1.987432894984325848e+00 2.844636581376868118e-06
1.992476390496748628e+00 2.721234641348998826e-06
1.997532684854882445e+00 2.603389189209130731e-06
2.002601810538274130e+00 2.490842674332553123e-06
2.007683800108895245e+00 2.383349791273638229e-06
2.012778686211347701e+00 2.280676883824297028e-06
2.017886501573077140e+00 2.182601378726757437e-06
2.023007279004579662e+00 2.088911247533221063e-06
2.028141051399616313e+00 1.999404495182343506e-06
2.033287851735420926e+00 1.913888673937290553e-06
2.038447713072913281e+00 1.832180421400105361e-06
2.043620668556913600e+00 1.754105021383797795e-06
2.048806751416351268e+00 1.679495986486530029e-06
2.054005994964481996e+00 1.608194661271968432e-06
2.059218432599099202e+00 1.540049845016374996e-06
2.064444097802750289e+00 1.474917433036643155e-06
2.069683024142951577e+00 1.412660075664150440e-06
2.074935245272402362e+00 1.353146853977443658e-06
2.080200794929202956e+00 1.296252971452265997e-06
2.085479706937070521e+00 1.241859460730553242e-06
2.090772015205555778e+00 1.189852904751030315e-06
2.096077753730262838e+00 1.140125171522749386e-06
2.101396956593064580e+00 1.092573161859532481e-06
2.106729657962325142e+00 1.047098569428338311e-06
2.112075892093115304e+00 1.003607652497311497e-06
2.117435693327436752e+00 9.620110168006833070e-07
2.122809096094438797e+00 9.222234089673866244e-07
2.128196134910643522e+00 8.841635199882426081e-07
2.133596844380163393e+00 8.477537982232934134e-07
2.139011259194926406e+00 8.129202714761548396e-07
2.144439414134897692e+00 7.795923776861714394e-07
2.149881344068304223e+00 7.477028038118997761e-07
2.155337083951856414e+00 7.171873325010015538e-07
2.160806668830975052e+00 6.879846961620701046e-07
2.166290133840015120e+00 6.600364380732811306e-07
2.171787514202492275e+00 6.332867801811805005e-07
2.177298845231307567e+00 6.076824972603186931e-07
2.182824162328976580e+00 5.831727971210004383e-07
2.188363500987855481e+00 5.597092065681765246e-07
2.193916896790368387e+00 5.372454628292863092e-07
2.199484385409236964e+00 5.157374101830868724e-07
2.205066002607710018e+00 4.951429015348691325e-07
2.210661784239791317e+00 4.754217046961897122e-07
2.216271766250472286e+00 4.565354131393273583e-07
2.221895984675960722e+00 4.384473610081314843e-07
2.227534475643914380e+00 4.211225421777829095e-07
2.233187275373671454e+00 4.045275331663982272e-07
2.238854420176482396e+00 3.886304197110361342e-07
2.244535946455746611e+00 3.734007268301672854e-07
2.250231890707242943e+00 3.588093522033543466e-07
2.255942289519365929e+00 3.448285027073316084e-07
2.261667179573359387e+00 3.314316339556190158e-07
2.267406597643554012e+00 3.185933926963770388e-07
2.273160580597601399e+00 3.062895619303633810e-07
2.278929165396712087e+00 2.944970086176793968e-07
2.284712389095894469e+00 2.831936338484635132e-07
2.290510288844188835e+00 2.723583253588475698e-07
2.296322901884909840e+00 2.619709122792929501e-07
2.302150265555883202e+00 2.520121220080056917e-07
2.307992417289688181e+00 2.424635391073790435e-07
2.313849394613895161e+00 2.333075661264142951e-07
2.319721235151308125e+00 2.245273862568284695e-07
2.325607976620206685e+00 2.161069277350503119e-07
2.331509656834587219e+00 2.080308299066458094e-07
2.337426313704407566e+00 2.002844108737175294e-07
2.343357985235827723e+00 1.928536366497687320e-07
2.349304709531457203e+00 1.857250917501361001e-07
2.355266524790597504e+00 1.788859511496391289e-07
2.361243469309489029e+00 1.723239535424006613e-07
2.367235581481554885e+00 1.660273758419322129e-07
2.373242899797650018e+00 1.599850088626110897e-07
2.379265462846307244e+00 1.541861341265002263e-07
2.385303309313984599e+00 1.486205017421897842e-07
2.391356477985315809e+00 1.432783093049053418e-07
2.397425007743356762e+00 1.381501817695776583e-07
2.403508937569837300e+00 1.332271522509055863e-07
2.409608306545410361e+00 1.285006437066383172e-07
2.415723153849904659e+00 1.239624514624197473e-07
2.421853518762574264e+00 1.196047265385303163e-07
2.427999440662352626e+00 1.154199597407687273e-07
2.434160959028104365e+00 1.114009664794979682e-07
2.440338113438879741e+00 1.075408722826312128e-07
2.446530943574168671e+00 1.038330989699315505e-07
2.452739489214154744e+00 1.002713514575690124e-07
2.458963790239971470e+00 9.684960516333873014e-08
2.465203886633959840e+00 9.356209398434993917e-08
2.471459818479921466e+00 9.040329882033171719e-08
2.477731625963381479e+00 8.736793661693802010e-08
2.484019349371839880e+00 8.445094990467297676e-08
2.490323029095037111e+00 8.164749681015962024e-08
2.496642705625208958e+00 7.895294151758893547e-08
2.502978419557347678e+00 7.636284515919564747e-08
2.509330211589464898e+00 7.387295711459118844e-08
2.515698122522848745e+00 7.147920669972217226e-08
2.522082193262331185e+00 6.917769522708801562e-08
2.528482464816546038e+00 6.696468841972014895e-08
2.534898978298196326e+00 6.483660916219541211e-08
2.541331774924314502e+00 6.279003057275294352e-08
2.547780896016530683e+00 6.082166938129019109e-08
2.554246383001336440e+00 5.892837959872872785e-08
2.560728277410349918e+00 5.710714646391114069e-08
2.567226620880585841e+00 5.535508065483389966e-08
2.573741455154718416e+00 5.366941275166523773e-08
2.580272822081354445e+00 5.204748793959514851e-08
2.586820763615298002e+00 5.048676094018529336e-08
2.593385321817822220e+00 4.898479116047184880e-08
2.599966538856938403e+00 4.753923804968093361e-08
2.606564457007667812e+00 4.614785665401172555e-08
2.613179118652313004e+00 4.480849336055901765e-08
2.619810566280728725e+00 4.351908182206944052e-08
2.626458842490597245e+00 4.227763905487234002e-08
2.633123989987699698e+00 4.108226170300009400e-08
2.639806051586192304e+00 3.993112246219871590e-08
2.646505070208879484e+00 3.882246665825870939e-08
2.653221088887490975e+00 3.775460897483365921e-08
2.659954150762958935e+00 3.672593032667216429e-08
2.666704299085691510e+00 3.573487487495308705e-08
2.673471577215856154e+00 3.477994718215602091e-08
2.680256028623652753e+00 3.385970950460987606e-08
2.687057696889596059e+00 3.297277922149421802e-08
2.693876625704795469e+00 3.211782639959883830e-08
2.700712858871233912e+00 3.129357149351660094e-08
2.707566440302050736e+00 3.049878318112316043e-08
2.714437414021823258e+00 2.973227633412680347e-08
2.721325824166850982e+00 2.899291012311809314e-08
2.728231714985435374e+00 2.827958625589210386e-08
2.735155130838168969e+00 2.759124734682731961e-08
2.742096116198215583e+00 2.692687541382996700e-08
